time,x,y,z,vx,vy,vz,phi,theta,psi,p,q,r
0.0,0.0,0.0,0.0,0.0,0.0,0.0,0.0,0.0,0.0,0.0,0.0,0.0
0.01,5.017953254791524e-05,3.767958467733585e-05,0.0003116571831860242,0.010071790945133928,0.00757180657007982,0.06233125532599563,-0.0014336210564269661,0.001433619216194804,-1.0272268364987453e-06,-0.28661055554976117,0.28661055554976117,0.0
0.02,0.00020332828675036785,0.00015361898395750063,0.001251976750555887,0.020638539441368616,0.01571511600122341,0.12573194507514787,-0.005362777089017683,0.0046304406358781205,-6.174859508137679e-06,-0.4991338651983002,0.3527264455160251,0.0010729999783970767
0.03,0.0004650510300698268,0.0003552774191841208,0.0028327054269644174,0.031747600145978126,0.024763384466414032,0.1904122169540417,-0.011141857262154792,0.006267695565789229,-6.699395884047346e-06,-0.6566191165612522,-0.025135833365454996,0.0011174279900386442
0.04,0.0008387782874925379,0.0006529750543167287,0.005061943124056693,0.04295575457633613,0.03495805062877519,0.2554327383566468,-0.018291268244899888,0.004614552373293081,1.1161033777800944e-05,-0.7732380760788368,-0.30539044454538156,-0.0027123347038422656
0.05,0.0013231899009411474,0.0010590340744213898,0.007938414972407852,0.05382284237113388,0.04646051090066828,0.3198571362221458,-0.026455086874301474,0.000521188620482691,4.039747011254541e-05,-0.8595138427259787,-0.5131089738104604,-0.009978968223972986
0.060000000000000005,0.0019132079645747674,0.0015870976452876076,0.011453768502433494,0.06403240111807856,0.05937619813707874,0.3832061499563428,-0.03536913112353399,-0.005380998389663294,7.456303709295486e-05,-0.9232668273006973,-0.6668900919321734,-0.0198390628719669
0.07,0.0026010759439584075,0.0022516808619847026,0.015596699927187787,0.07336075982220944,0.0737763257987884,0.44536891473254475,-0.044837297611851526,-0.012623058110760694,0.00010904129131006593,-0.9703047738456778,-0.7805583111818121,-0.03146196745640401
0.08,0.003377144147109552,0.0030678953962685568,0.020355650784519112,0.08164952556707876,0.08971063087614854,0.5064055636324487,-0.05471400581546937,-0.020856761286896147,0.00014101860394955928,-1.0049388770741021,-0.8643935078426996,-0.044173369677270896
0.09,0.004230422212266369,0.00405126493280194,0.02571980441440143,0.08878647829896774,0.107212856539911,0.5664045203727175,-0.06489118032149566,-0.029823584370395534,0.00016906012749197077,-1.030368914749179,-0.9260394922065536,-0.0574784343147273
0.09999999999999999,0.0051489783883375065,0.005217575798658749,0.031679012213199687,0.09469382927739098,0.12630247190283575,0.6254111414798482,-0.07528859577591972,-0.039331645855552495,0.00019265262994556202,-1.0489698486328496,-0.9711787583285307,-0.07103878555955899
0.10999999999999999,0.006120247881851263,0.006582734069968801,0.03822320419796062,0.09932156951926939,0.14698437772221468,0.6833959360540038,-0.08584671228132523,-0.049238559505573154,0.0002118353448641881,-1.0625046746277704,-1.0040345409280096,-0.08463707153023461
0.11999999999999998,0.007131292338246538,0.008162613193985214,0.045341573021026337,0.10264418960158782,0.1692473905560081,0.7402410428143659,-0.0965213561231352,-0.0594386911047523,0.00022693915348542487,-1.0722823228909804,-1.027744617712008,-0.0981430701713389
0.12999999999999998,0.008169034004360145,0.009972889022491686,0.053021731683290094,0.10465875924702664,0.19306332196452386,0.7957484966808613,-0.10727976889511187,-0.06985369119863334,0.00023841826304380736,-1.0792747445430226,-1.0446396307763046,-0.11148603518318344
0.13999999999999999,0.00922046343464044,0.01202888407649418,0.06124913012211275,0.10538142029978587,0.2183898407093076,0.8496837307417865,-0.1180976721538862,-0.08042546375124861,0.0002467501316432818,-1.0842037375849705,-1.0564502617956157,-0.1246339334753333
0.15,0.010272795393886588,0.014345465523051985,0.07000703350311632,0.10484043332280257,0.24517842249922167,0.901844402427822,-0.12895708621298999,-0.09111094519491342,0.00025238152538890017,-1.0876053516591964,-1.0644613871466773,-0.1375786791780918
0.16,0.011313549850437473,0.016937026873797806,0.07927708900850981,0.10306814650151312,0.2733831250474716,0.9521092654336973,-0.1398447092291031,-0.10187822843143889,0.0002557037138836593,-1.0898776804141315,-1.0696267319243609,-0.15032606083590355
0.17,0.012330572335916182,0.019817528356303588,0.08904009277693348,0.10009697870989116,0.3029634531219235,1.0004293481662485,-0.15075071268615653,-0.11270368568534604,0.00025704489766969053,-1.0913163407364797,-1.07265410830172,-0.16288912158674773
0.18000000000000002,0.013312041050344383,0.02300053234331202,0.0992764733682261,0.09596083922079214,0.3338804403914087,1.0467801043593064,-0.16166784638759657,-0.12356983299200701,0.0002566720432475198,-1.0921408205411263,-1.0740687601262346,-0.17528397411577262
0.19000000000000003,0.014246496824925639,0.026499193223878736,0.10996634256415527,0.09069825037563584,0.3660914775581296,1.0911227363942895,-0.17259077351709162,-0.13446374524243906,0.00025479725443670236,-1.092514050808003,-1.074260420696179,-0.18752727590983467
0.20000000000000004,0.015122954340712438,0.030326211768658802,0.12108932242420739,0.08437729962991289,0.3995484260722767,1.1333998553899503,-0.18351435988719025,-0.14481999954544797,0.00024758837913508783,-1.092362488996883,-0.9640707905798925,-0.18052678071375955
0.21000000000000005,0.015931768922227196,0.03449377730650188,0.13262446123715452,0.07723012722951131,0.4341970903900791,1.1735595754073536,-0.19443057423231858,-0.1525179670522281,0.00021852984332899338,-1.0915696521502518,-0.5474459489272027,-0.11358854777648068
0.22000000000000006,0.01666694159554349,0.03901348564414013,0.1445503331133812,0.06971049159761548,0.4699729923102706,1.2115531993868376,-0.20533650640844808,-0.15741157983125567,0.00016672568368750193,-1.0911766238659595,-0.40989878249315226,-0.0905305614544521
0.23000000000000007,0.01732612981929517,0.04389628107165759,0.1568449761019246,0.0620434876504898,0.5068103807042348,1.2473132260105624,-0.2162403370094777,-0.16191603411924146,0.00012724287750063754,-1.0908627649673213,-0.4693475943404006,-0.10569348919196067
0.24000000000000007,0.017907849111247195,0.04915251894145652,0.1694859233137912,0.054197247643626614,0.5446573236849028,1.2808086892770982,-0.22714465135969425,-0.1675063215588256,0.00011139520512826421,-1.090580220476246,-0.6204708778911392,-0.14346483174261407
0.25000000000000006,0.01840960441320218,0.054792107853707764,0.1824506067403751,0.046026588339906645,0.5834765072063115,1.3120540057912975,-0.23804869100200207,-0.1744653906688935,0.00011395544965049646,-1.0902050411502842,-0.7338214574613591,-0.1770655015621303
0.26000000000000006,0.018827476147915977,0.06082464297810296,0.1957168103849179,0.03740406040340077,0.6232426239794563,1.3411071755534543,-0.24894968551265634,-0.18245183093710549,0.00012339477189451156,-1.0897205313793215,-0.8166654589011675,-0.2063847620186204
0.2700000000000001,0.019156457910070666,0.06725951551258627,0.2092630553980722,0.028237851106276867,0.6639402371034353,1.368057413142677,-0.25984559785648603,-0.19119918346596515,0.00013357465037104092,-1.0891402512240196,-0.8768950706240973,-0.23206232655567358
0.2800000000000001,0.01939075316542993,0.07410601327468311,0.2230688886980502,0.01846010061769225,0.705564154815636,1.3930204666768977,-0.2707350343421028,-0.20050953342120087,0.0001415719486839437,-1.0884861014542124,-0.9203554979634451,-0.25471643641133096
0.2900000000000001,0.01952396801009541,0.08137342329403217,0.23711512284216657,0.008017990445073819,0.7481194515034627,1.4161335735822695,-0.2816170884526312,-0.2102359043480703,0.00014620390468461476,-1.0877800783208231,-0.9513753671452468,-0.27490158033382056
0.3000000000000001,0.01954922830854274,0.08907113329163044,0.25138402606732896,-0.0031325842984211566,0.7916212227534579,1.4375505212876634,-0.29249121073931217,-0.22026916741899505,0.00014718818365110677,-1.087041148494628,-0.9731598937281368,-0.2930936000005341
0.3100000000000001,0.01945924367763686,0.09720872961027067,0.2658594641376028,-0.015031403624227224,0.8360941204556014,1.4574369384405426,-0.3033571062600861,-0.2305283104334058,0.00014467395270491585,-1.0862844373974763,-0.9880822685247983,-0.3096892879036811
0.3200000000000001,0.019246335337413694,0.10579608934908845,0.2805269959278539,-0.027716823878203338,0.8815716586866413,1.475965745636574,-0.3142146566448176,-0.24095320612969567,0.00013898737936893243,-1.085521407122091,-0.9978995522899881,-0.3250130034850624
0.3300000000000001,0.018902440447881773,0.11484346504043039,0.29537392609014185,-0.041227626541664904,0.9280954172429327,1.4933131178434786,-0.3250638624847957,-0.25149923901576837,0.0001304993193307827,-1.0847604015200818,-1.0039125982117574,-0.33932610096555155
0.34000000000000014,0.018419101446897734,0.12436156173921639,0.31038932197661107,-0.05560420474293674,0.975714322360187,1.509655370569928,-0.3359048017192008,-0.2621333137343872,0.00011956131551543433,-1.084007272106943,-1.0070844908206318,-0.352836901168149
0.35000000000000014,0.017787445604052432,0.13436160781756107,0.3255640045583691,-0.07088936007794791,1.0244841089918728,1.5251668705807102,-0.3467376002137168,-0.272830890101675,0.00010647876201099797,-1.0832659608388084,-1.0081282500293878,-0.36571006861508437
0.36000000000000015,0.016998158579076217,0.14485542040184102,0.3408905202445274,-0.08712872357066755,1.0744667877129395,1.540018303893118,-0.35756241140818107,-0.2835737809370477,9.150347026715403e-05,-1.082538994129822,-1.0075717699038975,-0.3780748964591707
0.37000000000000016,0.016041457939783593,0.15585546184406174,0.3563630875738838,-0.10437035346941569,1.1257293817468685,1.5543733835614637,-0.36837940257547475,-0.294348516533205,7.483569290261858e-05,-1.0818278793851555,-1.0058058983555602,-0.3900323531683422
0.38000000000000017,0.014907078391755157,0.16737487479755936,0.3719774922978755,-0.1226627988481614,1.1783409037115558,1.5683818247958885,-0.379188745812844,-0.3051451300049021,5.663018140037465e-05,-1.0811334116286093,-1.0031200331788541,-0.4016609266024668
0.3900000000000002,0.013584290049671944,0.17942747010185808,0.38773087812663987,-0.1420504243494279,1.232365927652887,1.5821655123077791,-0.3899906123607133,-0.315956255225094,3.700343358835901e-05,-1.0804559038993307,-0.999728474976731,-0.41302138571354363
0.4000000000000002,0.012061979552455356,0.19202763011287924,0.4036213646958846,-0.16256551209615105,1.2878540926283089,1.5957977890219068,-0.4007851692191116,-0.3267764569069699,1.6041052071196314e-05,-1.079795336194495,-0.9957899599499748,-0.42416055456037577
0.4100000000000002,0.010328816061341192,0.2051901000566599,0.41964746079591003,-0.18421918944546634,1.344828204052759,1.6092832233862355,-0.41157257732369856,-0.33760173308201064,-6.194365250434165e-06,-1.0791514068181574,-0.9914221819986838,-0.4351141867911513
0.4200000000000002,0.008373487706643118,0.21892968744353125,0.43580735099620505,-0.20699643923462313,1.403277772556096,1.6225525036749024,-0.4223529907422068,-0.34842914560890276,-2.965689238181754e-05,-1.0785237084642927,-0.9867123746454612,-0.44590965992046566
0.4300000000000002,0.006184934970098741,0.23326096631316587,0.4520982810072821,-0.23086175018655103,1.4631664982219268,1.6354872477330358,-0.433126556499276,-0.3592565457752873,-5.431354520695707e-05,-1.0779117903793978,-0.9817252213432949,-0.45656787339363464
0.4400000000000002,0.003752469143974451,0.24819813248284317,0.46851632613032823,-0.2557764905687702,1.5244550393910057,1.6479717639462834,-0.4438934147948597,-0.37008237050881065,-8.014132911080846e-05,-1.0773151902174376,-0.9765087220792598,-0.46710470692621076
0.45000000000000023,0.0010656878953484556,0.26375503705597964,0.4850567113155306,-0.28172467164427967,1.5870997877908306,1.6599579968653784,-0.4538426665392992,-0.3809065844631517,-0.00010969837907808254,-0.9147812945163584,-0.9714668613890952,-0.47753216069337523
0.46000000000000024,-0.0018857504044354234,0.27994448288439794,0.5017147436425975,-0.3086956488495762,1.6509065946424581,1.6715322544142635,-0.4605394755011172,-0.3904654016105963,-0.00015761628466829102,-0.4280872198554507,-0.7403375343863318,-0.37480177820264904
0.47000000000000025,-0.005111233155949755,0.2967757515599273,0.518487052020722,-0.33649065958802865,1.7153899989498262,1.6828689492447757,-0.46297024468274484,-0.39656430323566305,-0.00022927810139436588,-0.06336766847904529,-0.3461057889108349,-0.18069317827100842
0.48000000000000026,-0.008617118846880423,0.31425300397701755,0.5353718365623709,-0.36473049047699707,1.7800496792992204,1.6940751932534375,-0.46233439364773443,-0.3991975633919738,-0.0002951323918412067,0.1854220302925134,-0.11982556544689427,-0.0653722145038346
0.49000000000000027,-0.012406475127208463,0.33237621481736024,0.5523683574739675,-0.3931620088767055,1.8445456775965219,1.7052451457395492,-0.45965022652170284,-0.3999788527367112,-0.00034052351635783916,0.3478269979345627,-0.016394397192796215,-0.011702367279665143
0.5000000000000002,-0.016480824830998584,0.3511429085355948,0.5694771887876133,-0.42172234852277807,1.9087215618559057,1.7165531470513837,-0.4555694265945987,-0.4000392944637913,-0.00036968821375219185,0.4660148930358578,0.007931380852374256,0.0015219631971828112
0.5100000000000002,-0.02084168875654237,0.37054955713116805,0.5867007809123199,-0.4504708234694158,1.9725161209605864,1.7282051906691454,-0.4503411818547013,-0.4002326737146695,-0.000390531565324044,0.5779646435991128,-0.041047303577535874,-0.021855462681011316
0.5200000000000002,-0.02549083926553525,0.3905911657768334,0.6040416377103281,-0.4794032761861203,2.0356961419224184,1.7400044551803682,-0.44413502313914266,-0.4016909035323666,-0.00041224476801901295,0.6615030088567198,-0.2202875902229196,-0.10769559324147746
0.5300000000000002,-0.030429204056573542,0.4112589478777191,0.6214968164558975,-0.5083479106290787,2.0977442813595637,1.7510573267005458,-0.4375124624968119,-0.405223995709584,-0.0004426016227519251,0.6605319498656155,-0.41651575891084053,-0.1986232049447868
0.5400000000000003,-0.035656999629003185,0.4325404627890106,0.6390563263355705,-0.5373182016959644,2.158444420219309,1.7608560773252524,-0.4309133202253413,-0.4106403496880737,-0.00048027881008675364,0.6562045047083379,-0.5634016764009504,-0.2632032991763177
0.5500000000000003,-0.04117623113985517,0.454423412811426,0.6567094979792787,-0.5666576389326564,2.2180240255932366,1.7697817517338543,-0.42384891769294025,-0.4174537394046361,-0.0005222716855930397,0.7531636918743523,-0.6735839196519784,-0.30857147092560583
0.5600000000000003,-0.04699222033136197,0.47689737970089974,0.6744496987559575,-0.5966885224010018,2.276631132726401,1.7782594993504586,-0.4158068728830644,-0.425303526146692,-0.0005686057255644219,0.8513383846763263,-0.7566389304327008,-0.33907173096864535
0.5700000000000003,-0.0531128357653157,0.4999526203390768,0.6922733441102394,-0.6275972235253877,2.3342638898754857,1.786468499824273,-0.40691018144926544,-0.43392107445433803,-0.0006177396871531154,0.9238191857131048,-0.8195549178497554,-0.35827113848827374
0.5800000000000003,-0.059547350127248,0.5235791921695857,0.7101781554394524,-0.6594577298507591,2.3908860341104403,1.7944997878391524,-0.3973845652987667,-0.4417538763167681,-0.0006588582067392928,0.9780079014031248,-0.6188993701727006,-0.26213179740758336
0.5900000000000003,-0.06630458620292576,0.5477667200412689,0.728162854559554,-0.6920887793973003,2.4464464379518605,1.8024721228726819,-0.38740257094279695,-0.4461330128794443,-0.0006678233568574688,1.0178440885106417,-0.18930578938222026,-0.07506235540802211
0.6000000000000003,-0.07339102838361031,0.5725049010318609,0.7462289831763953,-0.7252357662546639,2.5010097210093947,1.8108165271694807,-0.37709498282169085,-0.4464322678924347,-0.0006405832505462165,1.046025937041982,0.13225795609984276,0.05671609221337115
0.6100000000000003,-0.08082644225519878,0.5977984091682593,0.7644152669084424,-0.7618343761035373,2.5574932497185054,1.8265320098989546,-0.36655269029070225,-0.4437062764935831,-0.000596552719430869,1.0661405697391508,0.373020179870003,0.14833499291630703
0.6200000000000003,-0.08864996574433259,0.6236708295049013,0.7828091553495005,-0.8028136978011501,2.6167691222403975,1.8523649405430511,-0.3558398418514042,-0.4387388344884213,-0.0005468285132153531,1.0805734927395196,0.5533373525820753,0.21084728400673963
0.6300000000000003,-0.09688510597757385,0.6501323805036575,0.8014724155080091,-0.844123649394721,2.675312860221183,1.8804211722660455,-0.34500266077076785,-0.4321123009639795,-0.0004973804806982942,1.090940109623849,0.6884493069362441,0.2523039186550271
0.6400000000000003,-0.10553139890793847,0.6771730558903816,0.8204216077561224,-0.885018134203217,2.732590593153694,1.9095604040356793,-0.3340750117667426,-0.4242591774651546,-0.00045112175074278377,1.0983554766098655,0.7897637242475156,0.2785539008589241
0.6500000000000004,-0.11457869921000738,0.7047756405833071,0.8396560296407776,-0.9243073241823081,2.7876965927154074,1.9374697297408199,-0.3230820192195005,-0.4155005295889224,-0.0004092121856384625,1.1036039330962593,0.8658150840879242,0.29383748284961775
0.6600000000000004,-0.12399906486778292,0.7329090951422442,0.859137061288634,-0.9596250858937675,2.838777501316679,1.958875526863609,-0.31204249088468033,-0.4060746029008315,-0.00037185734659751974,1.1072469073985385,0.9229842395766458,0.30122334556031377
0.6700000000000004,-0.1337383447945309,0.7615221125347157,0.8787648589997298,-0.9880984359894447,2.883636380916108,1.966805308951199,-0.30097058965279494,-0.39615812113311755,-0.0003387846163707037,1.1096924673289388,0.9660389092597296,0.30292914327823883
0.6800000000000004,-0.1437477989719356,0.7905691894459801,0.898448932352508,-1.0136594742469582,2.9255989527983375,1.9701233787076933,-0.28987701752982753,-0.38588212625148266,-0.00030951746049624344,1.1112410300809181,0.9985394812673369,0.30055558931055326
0.6900000000000004,-0.1540050128677974,0.8200270432940872,0.9181587683037994,-1.0376471994786647,2.965795148698432,1.9719538371215852,-0.2787698730991736,-0.37534375145356724,-0.00028352628491043973,1.1121160360205586,1.0231434209877759,0.29525687531989947
0.7000000000000004,-0.16449547114645807,0.8498791472362435,0.9378823230535437,-1.060305514407761,3.0044512849626055,1.9728633653918741,-0.2676552836468998,-0.364614966664348,-0.00026030570603494157,1.1124849843394629,1.0418333923363712,0.2878644435457884
0.7100000000000004,-0.17520625217076047,0.8801105226582063,0.9576111622736758,-1.0817095489980262,3.041651487755434,1.9730068156481337,-0.2565378774546183,-0.3537490723270586,-0.00023940925875103362,1.1124741680386834,1.0560880501509167,0.27897671172166133
0.7200000000000004,-0.1861251409660678,0.9107069676877902,0.977338289782802,-1.1019253106079432,3.077467003775945,1.972517047694094,-0.24542114008273316,-0.3427855196677151,-0.00022046048473834992,1.1121791986917453,1.067009803522853,0.26902401940275833
0.7300000000000004,-0.19724074213154769,0.9416550866866794,0.9970585129853551,-1.1210503784338721,3.1119876331216356,1.971622095655121,-0.23430768490849985,-0.33175348783719655,-0.00020315170856213732,1.1116726529491012,1.0754203205495902,0.2583155815127618
0.7400000000000004,-0.20854284232571915,0.9729425051207287,1.0167696170514675,-1.13922321754042,3.145327517392537,1.970689659519593,-0.22319945942314887,-0.32067453803373963,-0.00018723706559841763,1.111009707076221,1.0819318740506205,0.2470733992822626
0.7500000000000004,-0.22002270259150508,1.004558020479261,1.0364735221684303,-1.156599978829635,3.1776067420015384,1.970179131814899,-0.21209790293455974,-0.3095645825029279,-0.00017252345192699187,1.1102323359907722,1.0870006103582628,0.23545672983302574
0.7600000000000005,-0.2316729495737904,1.0364914560871554,1.056176373693426,-1.173297679225621,3.2089105372289946,1.970476053039621,-0.20100406727293618,-0.2984353451197924,-0.00015886133703688288,1.1093724696524692,1.0909663025154557,0.22357972887103458
